TEMP,DRUCK,SPEZ_VOL0,SPEZ_VOL1,ENTHA0,ENTHA1,ENTRO0,ENTRO1,WAERME_KAP0,WAERME_KAP1,ETA0,ETA1,LAMBDA0,LAMBDA1,SIGMA
-40,51209,0.00070537,0.36108,148.14,374,0.79561,1.7643,1.2546,0.749,0.00046703,0.000009269,0.11059,0.0081736,0.017597
-27,97104,0.00072492,0.19796,164.62,382.2,0.86425,1.7482,1.2787,0.791,0.00038379,9.75E-06,0.10434,0.0092372,0.015578
-26.079,101300,0.00072638,0.19023,165.8,382.78,0.86902,1.7472,1.2805,0.79417,0.00037873,9.78E-06,0.10391,0.0093131,0.015437
-25,1.06E+05,0.00072809,0.18162,167.19,383.45,0.8746,1.7461,1.2827,0.79792,0.0003784,0.000009725,0.1034,0.0094022,0.015272
-23,1.16E+05,0.00073131,0.16688,169.76,384.69,0.8849,1.7441,1.2868,0.80496,0.00036794,0.000009805,0.10246,0.0095676,0.014968
-21,1.27E+05,0.00073458,0.15357,172.34,385.94,0.89514,1.7422,1.2909,0.81215,0.00035788,0.000009885,0.10153,0.0097334,0.014664
-19,1.39E+05,0.0007379,0.14152,174.93,387.17,0.90534,1.7404,1.2952,0.81948,0.00034818,0.000009965,0.1006,0.0098997,0.014362
-17,1.51E+05,0.00074127,0.13059,177.53,388.4,0.91549,1.7387,1.2995,0.82695,0.00033884,0.000010045,0.099682,0.010067,0.014062
-15,1.64E+05,0.00074469,0.12067,180.14,389.63,0.92559,1.7371,1.304,0.83458,0.00032982,0.000010125,0.098765,0.010234,0.013762
-13,1.78E+05,0.00074818,0.11165,182.75,390.85,0.93564,1.7355,1.3085,0.84237,0.00032111,0.000010205,0.097851,0.010402,0.013464
-11,1.93E+05,0.00075172,0.10343,185.38,392.06,0.94566,1.7341,1.3132,0.85031,0.00031271,0.000010286,0.096942,0.010571,0.013167
-9,2.09E+05,0.00075532,0.095925,188.02,393.27,0.95563,1.7327,1.318,0.85843,0.00030458,0.000010366,0.096037,0.01074,0.012872
-7,2.25E+05,0.00075898,0.089072,190.66,394.47,0.96556,1.7313,1.3229,0.86672,0.00029671,0.000010447,0.095135,0.010911,0.012578
-5,2.43E+05,0.00076271,0.082801,193.32,395.66,0.97544,1.73,1.3279,0.8752,0.0002891,0.000010528,0.094238,0.011082,0.012285
-3,2.62E+05,0.0007665,0.077055,195.98,396.84,0.98529,1.7288,1.333,0.88386,0.00028172,0.000010609,0.093344,0.011254,0.011994
-1,2.82E+05,0.00077037,0.071782,198.66,398.02,0.99511,1.7276,1.3383,0.89272,0.00027457,0.00001069,0.092454,0.011427,0.011704
1,3.04E+05,0.00077431,0.066937,201.34,399.19,1.0049,1.7265,1.3438,0.90179,0.00026764,0.000010772,0.091567,0.011601,0.011416
3,3.26E+05,0.00077833,0.06248,204.04,400.34,1.0146,1.7255,1.3494,0.91108,0.00026091,0.000010855,0.090683,0.011777,0.011129
5,3.50E+05,0.00078243,0.058374,206.75,401.49,1.0243,1.7245,1.3552,0.92059,0.00025438,0.000010937,0.089803,0.011953,0.010844
7,3.75E+05,0.00078661,0.054587,209.47,402.63,1.034,1.7235,1.3611,0.93035,0.00024803,0.000011021,0.088925,0.012132,0.01056
9,4.01E+05,0.00079088,0.05109,212.21,403.76,1.0437,1.7226,1.3672,0.94036,0.00024185,0.000011105,0.08805,0.012311,0.010278
11,4.29E+05,0.00079524,0.047857,214.95,404.88,1.0533,1.7217,1.3736,0.95063,0.00023584,0.000011189,0.087177,0.012493,0.0099975
13,4.58E+05,0.00079969,0.044864,217.71,405.98,1.0629,1.7208,1.3801,0.96119,0.00023,0.000011274,0.086307,0.012676,0.0097186
15,4.88E+05,0.00080425,0.04209,220.48,407.07,1.0724,1.72,1.3869,0.97206,0.0002243,0.00001136,0.08544,0.012861,0.0094413
17,5.21E+05,0.00080891,0.039517,223.26,408.15,1.082,1.7192,1.3939,0.98324,0.00021875,0.000011447,0.084574,0.013048,0.0091657
19,5.54E+05,0.00081368,0.037128,226.06,409.22,1.0915,1.7184,1.4011,0.99476,0.00021334,0.000011535,0.08371,0.013238,0.0088918
21,5.90E+05,0.00081856,0.034906,228.88,410.27,1.101,1.7177,1.4087,1.0067,0.00020806,0.000011624,0.082848,0.01343,0.0086196
23,6.27E+05,0.00082357,0.032838,231.7,411.31,1.1105,1.7169,1.4165,1.0189,0.00020291,0.000011715,0.081988,0.013625,0.0083492
25,6.65E+05,0.0008287,0.030912,234.55,412.33,1.1199,1.7162,1.4246,1.0316,0.00019788,0.000011806,0.081129,0.013823,0.0080805
27,7.06E+05,0.00083396,0.029115,237.4,413.34,1.1294,1.7155,1.4331,1.0448,0.00019296,0.000011899,0.080271,0.014024,0.0078137
29,7.48E+05,0.00083937,0.027438,240.28,414.33,1.1388,1.7148,1.4419,1.0585,0.00018815,0.000011993,0.079414,0.014229,0.0075488
31,7.93E+05,0.00084493,0.025871,243.17,415.3,1.1482,1.7142,1.4511,1.0726,0.00018344,0.000012089,0.078558,0.014438,0.0072858
33,8.39E+05,0.00085065,0.024405,246.08,416.26,1.1576,1.7135,1.4608,1.0874,0.00017884,0.000012187,0.077702,0.014652,0.0070247
35,8.87E+05,0.00085653,0.023033,249.01,417.19,1.167,1.7128,1.4709,1.1028,0.00017433,0.000012286,0.076847,0.01487,0.0067656
37,9.37E+05,0.00086259,0.021747,251.95,418.1,1.1764,1.7121,1.4815,1.1189,0.00016991,0.000012388,0.075992,0.015094,0.0065085
39,9.90E+05,0.00086884,0.020541,254.92,418.99,1.1858,1.7114,1.4926,1.1358,0.00016557,0.000012492,0.075137,0.015323,0.0062535
41,1.04E+06,0.00087529,0.019409,257.91,419.86,1.1952,1.7107,1.5044,1.1535,0.00016132,0.000012599,0.074281,0.015559,0.0060007
43,1.10E+06,0.00088195,0.018345,260.91,420.7,1.2046,1.71,1.5167,1.1721,0.00015714,0.000012708,0.073425,0.015803,0.00575
45,1.16E+06,0.00088885,0.017344,263.94,421.52,1.2139,1.7092,1.5298,1.1917,0.00015304,0.000012821,0.072568,0.016054,0.0055016
47,1.22E+06,0.00089598,0.016402,267,422.31,1.2233,1.7085,1.5437,1.2125,0.000149,0.000012936,0.07171,0.016314,0.0052554
49,1.29E+06,0.00090338,0.015514,270.07,423.07,1.2327,1.7077,1.5584,1.2345,0.00014504,0.000013055,0.07085,0.016584,0.0050116
51,1.35E+06,0.00091107,0.014677,273.18,423.8,1.2422,1.7068,1.5741,1.258,0.00014113,0.000013179,0.069989,0.016865,0.0047702
53,1.42E+06,0.00091905,0.013887,276.31,424.49,1.2516,1.7059,1.5909,1.283,0.00013729,0.000013306,0.069126,0.017159,0.0045314
55,1.49E+06,0.00092737,0.01314,279.47,425.15,1.2611,1.705,1.6089,1.3099,0.00013349,0.000013438,0.068261,0.017466,0.0042951
57,1.57E+06,0.00093604,0.012434,282.66,425.77,1.2705,1.704,1.6282,1.3389,0.00012975,0.000013576,0.067393,0.017789,0.0040614
59,1.64E+06,0.0009451,0.011765,285.88,426.36,1.2801,1.703,1.6491,1.3702,0.00012606,0.000013719,0.066523,0.01813,0.0038305
61,1.72E+06,0.00095459,0.011132,289.14,426.89,1.2896,1.7019,1.6717,1.4042,0.00012241,0.000013869,0.065649,0.01849,0.0036025
63,1.80E+06,0.00096454,0.010531,292.43,427.38,1.2992,1.7006,1.6964,1.4413,0.0001188,0.000014027,0.064772,0.018874,0.0033773
65,1.89E+06,0.000975,0.0099604,295.76,427.82,1.3088,1.6993,1.7234,1.4822,0.00011523,0.000014192,0.063892,0.019283,0.0031553
67,1.98E+06,0.00098602,0.0094179,299.14,428.2,1.3185,1.6979,1.7531,1.5273,0.00011168,0.000014367,0.063007,0.019721,0.0029364
69,2.07E+06,0.00099768,0.0089016,302.55,428.52,1.3283,1.6964,1.786,1.5777,0.00010816,0.000014552,0.062119,0.020194,0.0027208
71,2.16E+06,0.00101,0.0084095,306.02,428.77,1.3381,1.6948,1.8228,1.6342,0.00010467,0.000014748,0.061226,0.020707,0.0025087
73,2.26E+06,0.0010232,0.0079399,309.55,428.94,1.348,1.6929,1.8643,1.6982,0.00010119,0.000014959,0.060329,0.021265,0.0023002
75,2.36E+06,0.0010372,0.007491,313.13,429.03,1.358,1.6909,1.9115,1.7714,0.000097716,0.000015185,0.059429,0.021878,0.0020956
77,2.47E+06,0.0010523,0.0070611,316.78,429.03,1.3682,1.6887,1.9657,1.8562,0.000094246,0.000015429,0.058525,0.022555,0.001895
79,2.58E+06,0.0010686,0.0066486,320.5,428.91,1.3784,1.6863,2.029,1.9557,0.000090768,0.000015695,0.057619,0.023309,0.0016987
80,2.63E+06,0.0010773,0.0064483,322.39,428.81,1.3836,1.685,2.0648,2.0122,0.000089023,0.000015837,0.057166,0.023719,0.0016023
81,2.69E+06,0.0010863,0.0062519,324.3,428.68,1.3889,1.6836,2.104,2.0743,0.000087272,0.000015986,0.056713,0.024155,0.001507
82,2.75E+06,0.0010958,0.0060589,326.24,428.51,1.3942,1.6821,2.147,2.1426,0.000085513,0.000016143,0.056262,0.02462,0.001413
83,2.81E+06,0.0011057,0.0058692,328.21,428.3,1.3995,1.6806,2.1945,2.2182,0.000083745,0.000016308,0.055812,0.025116,0.0013202
84,2.87E+06,0.0011162,0.0056827,330.2,428.05,1.4049,1.6789,2.2473,2.3026,0.000081964,0.000016483,0.055365,0.025647,0.0012288
85,2.93E+06,0.0011272,0.005499,332.22,427.76,1.4104,1.6771,2.3064,2.3971,0.000080169,0.000016668,0.054921,0.026219,0.0011387
86,2.99E+06,0.0011388,0.0053178,334.28,427.42,1.4159,1.6752,2.373,2.504,0.000078357,0.000016865,0.054483,0.026836,0.0010501
87,3.05E+06,0.0011512,0.005139,336.38,427.02,1.4215,1.6732,2.4488,2.6257,0.000076524,0.000017076,0.054053,0.027505,0.00096304
88,3.11E+06,0.0011643,0.0049623,338.51,426.55,1.4273,1.671,2.5358,2.7658,0.000074667,0.000017302,0.053633,0.028234,0.00087755
89,3.18E+06,0.0011784,0.0047872,340.69,426.02,1.4331,1.6687,2.6369,2.9287,0.00007278,0.000017545,0.053228,0.029033,0.00079374
90,3.24E+06,0.0011936,0.0046134,342.93,425.42,1.439,1.6662,2.7559,3.1207,0.000070858,0.000017809,0.052843,0.029914,0.00071173
91,3.31E+06,0.00121,0.0044404,345.22,424.72,1.4451,1.6634,2.8983,3.3504,0.000068893,0.000018097,0.052486,0.030895,0.00063162
92,3.38E+06,0.0012279,0.0042678,347.59,423.92,1.4514,1.6604,3.0719,3.6303,0.000066877,0.000018414,0.052169,0.031996,0.00055356
93,3.45E+06,0.0012475,0.0040947,350.03,422.99,1.4578,1.6571,3.2886,3.9789,0.000064799,0.000018766,0.051908,0.033249,0.00047771
94,3.52E+06,0.0012694,0.0039203,352.58,421.92,1.4645,1.6534,3.5669,4.4258,0.000062642,0.000019161,0.051728,0.034696,0.00040427
95,3.59E+06,0.0012942,0.0037434,355.25,420.67,1.4715,1.6492,3.9385,5.0195,0.000060385,0.000019612,0.051667,0.036403,0.0003335
95.5,3.63E+06,0.0013078,0.0036534,356.64,419.96,1.4752,1.647,4.1754,5.3964,0.000059209,0.000019863,0.051699,0.037384,0.00029921
96,3.66E+06,0.0013226,0.0035621,358.07,419.18,1.4789,1.6445,4.4602,5.8478,0.000057996,0.000020135,0.051786,0.038475,0.00026571
96.5,3.70E+06,0.0013386,0.003469,359.56,418.33,1.4828,1.6418,4.8094,6.3985,0.000056737,0.000020433,0.051941,0.0397,0.00023307
97,3.74E+06,0.0013562,0.0033737,361.12,417.39,1.4869,1.6389,5.2475,7.0855,0.000055425,0.000020762,0.052186,0.041096,0.00020134
97.5,3.78E+06,0.0013757,0.0032754,362.74,416.33,1.4912,1.6357,5.8137,7.9671,0.000054047,0.000021128,0.052548,0.042714,0.00017061
98,3.82E+06,0.0013976,0.0031733,364.47,415.14,1.4957,1.6322,6.5735,9.1402,0.000052586,0.000021543,0.053071,0.044636,0.00014099
98.5,3.85E+06,0.0014227,0.0030659,366.32,413.77,1.5005,1.6282,7.6462,10.779,0.000051018,0.000022021,0.053828,0.046989,0.00011261
99,3.89E+06,0.0014522,0.0029512,368.34,412.16,1.5058,1.6235,9.2723,13.229,0.000049303,0.000022587,0.054954,0.050006,0.000085636
99.5,3.93E+06,0.0014884,0.0028253,370.61,410.2,1.5117,1.618,12.018,17.295,0.000047376,0.000023287,0.056738,0.054152,0.000060328
100,3.97E+06,0.0015357,0.0026809,373.3,407.68,1.5188,1.6109,17.592,25.35,0.000045102,0.000024212,0.059946,0.06058,0.000037074
100.5,4.01E+06,0.0016069,0.002498,376.84,404.02,1.5281,1.6008,34.35,48.677,0.000042128,0.000025623,0.067628,0.073492,0.000016592
101.06,4.06E+06,0.0018289,0.0018289,385.61,385.61,1.5513,1.5513,547.22,547.22,0.00003543,0.00003543,0.15575,0.15575,9.95E-07
